Sample:	'Aaron_filter_2_silica
File name:	Aaron_filter_2_silica.UDS
Run Date:	'15:19:00, 02/14/2024
Operator:	Kings College Spec
Comment:	'

Instrument
Model:	U-4100 Spectrophotometer(Solid)
Serial Number:	'
ROM Version:	5300 04

Instrument Parameters
Measurement Type:	Wavelength Scan
Data Mode:	%T
Start Wavelength:	800.00 nm
End Wavelength:	300.00 nm
Scan Speed:	300 nm/min
Sampling Interval:	0.50 nm
Delay:	0 s
Cycle Time:	0.0 min
Replicates:	1
Auto Zero before each run:	Off
Slit Width:	2.00 nm
PMT Voltage:	Auto1
Lamp Change Mode:	Auto
Lamp Change Wavelength:	340.00 nm
Baseline Correction:	User 1
High Resolution:	Off
D2 Lamp:	On
WI Lamp:	On
R/S Reverse:	Off
Attenuation:	'None
--- NIR ---
Scan Speed:	1500 nm/min
Slit:	6.0 nm
PbS Gain:	1
Detector change correct:	ON
Detector change Wavelength:	850.0 nm
Light control:	Auto change
--------------
Path Length:	2.0 mm

Processing Performed
Savitsky-Golay Smoothed
Smoothing Order:	3
Number of Points:	7
Number of Times:	1

Data Points
nm	%T
800.00	-0.003
799.50	-0.006
799.00	-0.008
798.50	-0.007
798.00	-0.004
797.50	0.000
797.00	0.005
796.50	0.010
796.00	0.013
795.50	0.013
795.00	0.012
794.50	0.011
794.00	0.012
793.50	0.012
793.00	0.012
792.50	0.013
792.00	0.012
791.50	0.011
791.00	0.010
790.50	0.009
790.00	0.008
789.50	0.007
789.00	0.007
788.50	0.006
788.00	0.005
787.50	0.001
787.00	-0.001
786.50	-0.004
786.00	-0.004
785.50	-0.003
785.00	0.000
784.50	0.003
784.00	0.005
783.50	0.005
783.00	0.003
782.50	0.002
782.00	0.002
781.50	0.004
781.00	0.007
780.50	0.010
780.00	0.013
779.50	0.015
779.00	0.015
778.50	0.014
778.00	0.012
777.50	0.011
777.00	0.011
776.50	0.009
776.00	0.008
775.50	0.009
775.00	0.011
774.50	0.012
774.00	0.013
773.50	0.012
773.00	0.008
772.50	0.005
772.00	0.003
771.50	0.003
771.00	0.005
770.50	0.008
770.00	0.012
769.50	0.014
769.00	0.015
768.50	0.013
768.00	0.011
767.50	0.010
767.00	0.011
766.50	0.012
766.00	0.014
765.50	0.014
765.00	0.014
764.50	0.014
764.00	0.014
763.50	0.012
763.00	0.010
762.50	0.009
762.00	0.009
761.50	0.010
761.00	0.011
760.50	0.011
760.00	0.012
759.50	0.013
759.00	0.014
758.50	0.014
758.00	0.015
757.50	0.017
757.00	0.019
756.50	0.020
756.00	0.019
755.50	0.017
755.00	0.016
754.50	0.015
754.00	0.015
753.50	0.016
753.00	0.016
752.50	0.016
752.00	0.016
751.50	0.016
751.00	0.017
750.50	0.018
750.00	0.020
749.50	0.022
749.00	0.024
748.50	0.025
748.00	0.026
747.50	0.027
747.00	0.028
746.50	0.029
746.00	0.029
745.50	0.029
745.00	0.029
744.50	0.029
744.00	0.028
743.50	0.028
743.00	0.029
742.50	0.031
742.00	0.033
741.50	0.036
741.00	0.038
740.50	0.039
740.00	0.040
739.50	0.042
739.00	0.044
738.50	0.046
738.00	0.048
737.50	0.051
737.00	0.054
736.50	0.054
736.00	0.055
735.50	0.057
735.00	0.060
734.50	0.064
734.00	0.066
733.50	0.068
733.00	0.068
732.50	0.070
732.00	0.073
731.50	0.076
731.00	0.079
730.50	0.082
730.00	0.085
729.50	0.086
729.00	0.086
728.50	0.087
728.00	0.090
727.50	0.096
727.00	0.104
726.50	0.112
726.00	0.117
725.50	0.121
725.00	0.124
724.50	0.127
724.00	0.130
723.50	0.134
723.00	0.138
722.50	0.143
722.00	0.149
721.50	0.155
721.00	0.162
720.50	0.169
720.00	0.176
719.50	0.182
719.00	0.188
718.50	0.194
718.00	0.201
717.50	0.208
717.00	0.217
716.50	0.225
716.00	0.234
715.50	0.241
715.00	0.248
714.50	0.255
714.00	0.263
713.50	0.273
713.00	0.282
712.50	0.292
712.00	0.303
711.50	0.315
711.00	0.329
710.50	0.343
710.00	0.356
709.50	0.369
709.00	0.381
708.50	0.394
708.00	0.406
707.50	0.418
707.00	0.431
706.50	0.444
706.00	0.457
705.50	0.474
705.00	0.493
704.50	0.513
704.00	0.530
703.50	0.548
703.00	0.565
702.50	0.584
702.00	0.603
701.50	0.627
701.00	0.654
700.50	0.684
700.00	0.712
699.50	0.735
699.00	0.754
698.50	0.774
698.00	0.797
697.50	0.825
697.00	0.854
696.50	0.884
696.00	0.913
695.50	0.941
695.00	0.967
694.50	0.995
694.00	1.027
693.50	1.063
693.00	1.103
692.50	1.145
692.00	1.190
691.50	1.229
691.00	1.266
690.50	1.302
690.00	1.339
689.50	1.377
689.00	1.419
688.50	1.463
688.00	1.511
687.50	1.562
687.00	1.618
686.50	1.672
686.00	1.724
685.50	1.778
685.00	1.834
684.50	1.889
684.00	1.945
683.50	2.004
683.00	2.063
682.50	2.125
682.00	2.190
681.50	2.256
681.00	2.328
680.50	2.404
680.00	2.482
679.50	2.557
679.00	2.628
678.50	2.698
678.00	2.769
677.50	2.843
677.00	2.927
676.50	3.016
676.00	3.107
675.50	3.201
675.00	3.293
674.50	3.380
674.00	3.470
673.50	3.563
673.00	3.661
672.50	3.764
672.00	3.875
671.50	3.989
671.00	4.103
670.50	4.215
670.00	4.329
669.50	4.443
669.00	4.557
668.50	4.674
668.00	4.791
667.50	4.916
667.00	5.048
666.50	5.187
666.00	5.329
665.50	5.471
665.00	5.614
664.50	5.761
664.00	5.908
663.50	6.063
663.00	6.227
662.50	6.397
662.00	6.565
661.50	6.729
661.00	6.881
660.50	7.033
660.00	7.189
659.50	7.359
659.00	7.537
658.50	7.726
658.00	7.918
657.50	8.120
657.00	8.323
656.50	8.531
656.00	8.740
655.50	8.946
655.00	9.150
654.50	9.349
654.00	9.546
653.50	9.753
653.00	9.970
652.50	10.200
652.00	10.442
651.50	10.677
651.00	10.909
650.50	11.139
650.00	11.366
649.50	11.610
649.00	11.873
648.50	12.144
648.00	12.423
647.50	12.692
647.00	12.947
646.50	13.210
646.00	13.482
645.50	13.767
645.00	14.061
644.50	14.342
644.00	14.622
643.50	14.905
643.00	15.187
642.50	15.470
642.00	15.763
641.50	16.064
641.00	16.377
640.50	16.700
640.00	17.019
639.50	17.330
639.00	17.644
638.50	17.973
638.00	18.319
637.50	18.685
637.00	19.058
636.50	19.432
636.00	19.794
635.50	20.140
635.00	20.482
634.50	20.821
634.00	21.173
633.50	21.552
633.00	21.959
632.50	22.367
632.00	22.771
631.50	23.148
631.00	23.502
630.50	23.853
630.00	24.222
629.50	24.619
629.00	25.038
628.50	25.454
628.00	25.856
627.50	26.227
627.00	26.585
626.50	26.949
626.00	27.331
625.50	27.737
625.00	28.187
624.50	28.641
624.00	29.105
623.50	29.555
623.00	29.995
622.50	30.443
622.00	30.919
621.50	31.398
621.00	31.887
620.50	32.357
620.00	32.808
619.50	33.247
619.00	33.667
618.50	34.081
618.00	34.518
617.50	34.962
617.00	35.426
616.50	35.896
616.00	36.360
615.50	36.837
615.00	37.346
614.50	37.873
614.00	38.410
613.50	38.930
613.00	39.431
612.50	39.909
612.00	40.363
611.50	40.791
611.00	41.201
610.50	41.625
610.00	42.084
609.50	42.586
609.00	43.099
608.50	43.612
608.00	44.123
607.50	44.637
607.00	45.131
606.50	45.607
606.00	46.062
605.50	46.521
605.00	47.004
604.50	47.519
604.00	48.034
603.50	48.545
603.00	49.043
602.50	49.537
602.00	50.028
601.50	50.528
601.00	51.025
600.50	51.516
600.00	52.006
599.50	52.504
599.00	52.999
598.50	53.508
598.00	54.015
597.50	54.531
597.00	55.038
596.50	55.543
596.00	56.016
595.50	56.460
595.00	56.888
594.50	57.352
594.00	57.836
593.50	58.358
593.00	58.867
592.50	59.342
592.00	59.772
591.50	60.185
591.00	60.591
590.50	61.022
590.00	61.486
589.50	62.010
589.00	62.550
588.50	63.065
588.00	63.512
587.50	63.903
587.00	64.275
586.50	64.698
586.00	65.165
585.50	65.673
585.00	66.175
584.50	66.653
584.00	67.102
583.50	67.514
583.00	67.917
582.50	68.336
582.00	68.768
581.50	69.209
581.00	69.646
580.50	70.042
580.00	70.429
579.50	70.823
579.00	71.234
578.50	71.661
578.00	72.077
577.50	72.468
577.00	72.836
576.50	73.174
576.00	73.512
575.50	73.864
575.00	74.234
574.50	74.620
574.00	75.013
573.50	75.369
573.00	75.719
572.50	76.094
572.00	76.519
571.50	76.980
571.00	77.430
570.50	77.832
570.00	78.176
569.50	78.471
569.00	78.737
568.50	78.984
568.00	79.235
567.50	79.524
567.00	79.879
566.50	80.249
566.00	80.622
565.50	80.964
565.00	81.269
564.50	81.534
564.00	81.781
563.50	82.008
563.00	82.217
562.50	82.421
562.00	82.653
561.50	82.916
561.00	83.202
560.50	83.529
560.00	83.871
559.50	84.192
559.00	84.501
558.50	84.790
558.00	85.025
557.50	85.213
557.00	85.398
556.50	85.629
556.00	85.925
555.50	86.254
555.00	86.565
554.50	86.827
554.00	87.014
553.50	87.174
553.00	87.297
552.50	87.416
552.00	87.576
551.50	87.815
551.00	88.088
550.50	88.352
550.00	88.569
549.50	88.755
549.00	88.942
548.50	89.144
548.00	89.333
547.50	89.513
547.00	89.663
546.50	89.764
546.00	89.846
545.50	89.925
545.00	90.023
544.50	90.183
544.00	90.430
543.50	90.706
543.00	90.997
542.50	91.198
542.00	91.267
541.50	91.244
541.00	91.198
540.50	91.201
540.00	91.314
539.50	91.460
539.00	91.648
538.50	91.870
538.00	92.083
537.50	92.264
537.00	92.411
536.50	92.502
536.00	92.608
535.50	92.710
535.00	92.785
534.50	92.808
534.00	92.830
533.50	92.893
533.00	93.054
532.50	93.250
532.00	93.425
531.50	93.540
531.00	93.594
530.50	93.583
530.00	93.552
529.50	93.512
529.00	93.511
528.50	93.598
528.00	93.730
527.50	93.857
527.00	93.987
526.50	94.123
526.00	94.269
525.50	94.424
525.00	94.530
524.50	94.598
524.00	94.643
523.50	94.669
523.00	94.698
522.50	94.719
522.00	94.759
521.50	94.830
521.00	94.895
520.50	94.957
520.00	95.006
519.50	95.039
519.00	95.081
518.50	95.129
518.00	95.143
517.50	95.125
517.00	95.085
516.50	95.020
516.00	94.995
515.50	95.030
515.00	95.119
514.50	95.213
514.00	95.294
513.50	95.345
513.00	95.357
512.50	95.342
512.00	95.335
511.50	95.349
511.00	95.378
510.50	95.420
510.00	95.476
509.50	95.515
509.00	95.560
508.50	95.601
508.00	95.647
507.50	95.720
507.00	95.825
506.50	95.890
506.00	95.887
505.50	95.745
505.00	95.533
504.50	95.341
504.00	95.200
503.50	95.152
503.00	95.221
502.50	95.357
502.00	95.525
501.50	95.655
501.00	95.700
500.50	95.684
500.00	95.658
499.50	95.669
499.00	95.743
498.50	95.803
498.00	95.855
497.50	95.887
497.00	95.876
496.50	95.858
496.00	95.868
495.50	95.883
495.00	95.904
494.50	95.929
494.00	95.933
493.50	95.922
493.00	95.896
492.50	95.897
492.00	95.905
491.50	95.953
491.00	96.003
490.50	96.026
490.00	96.007
489.50	95.976
489.00	95.929
488.50	95.912
488.00	95.905
487.50	95.868
487.00	95.809
486.50	95.715
486.00	95.626
485.50	95.548
485.00	95.473
484.50	95.463
484.00	95.516
483.50	95.616
483.00	95.800
482.50	95.929
482.00	95.971
481.50	95.961
481.00	95.894
480.50	95.781
480.00	95.669
479.50	95.512
479.00	95.407
478.50	95.367
478.00	95.393
477.50	95.446
477.00	95.493
476.50	95.525
476.00	95.611
475.50	95.720
475.00	95.818
474.50	95.884
474.00	95.880
473.50	95.843
473.00	95.775
472.50	95.637
472.00	95.480
471.50	95.353
471.00	95.280
470.50	95.278
470.00	95.320
469.50	95.343
469.00	95.365
468.50	95.385
468.00	95.356
467.50	95.319
467.00	95.279
466.50	95.274
466.00	95.316
465.50	95.336
465.00	95.293
464.50	95.230
464.00	95.134
463.50	95.066
463.00	95.065
462.50	95.101
462.00	95.237
461.50	95.382
461.00	95.421
460.50	95.327
460.00	95.136
459.50	94.898
459.00	94.708
458.50	94.613
458.00	94.607
457.50	94.702
457.00	94.888
456.50	95.052
456.00	95.131
455.50	95.177
455.00	95.161
454.50	95.090
454.00	95.001
453.50	94.899
453.00	94.869
452.50	94.923
452.00	94.973
451.50	94.973
451.00	94.943
450.50	94.873
450.00	94.834
449.50	94.781
449.00	94.676
448.50	94.585
448.00	94.570
447.50	94.575
447.00	94.538
446.50	94.435
446.00	94.307
445.50	94.262
445.00	94.298
444.50	94.310
444.00	94.281
443.50	94.231
443.00	94.201
442.50	94.225
442.00	94.237
441.50	94.170
441.00	94.150
440.50	94.173
440.00	94.232
439.50	94.247
439.00	94.248
438.50	94.239
438.00	94.257
437.50	94.234
437.00	94.164
436.50	94.054
436.00	93.982
435.50	93.984
435.00	94.037
434.50	94.096
434.00	94.186
433.50	94.221
433.00	94.163
432.50	93.973
432.00	93.694
431.50	93.486
431.00	93.427
430.50	93.442
430.00	93.509
429.50	93.566
429.00	93.587
428.50	93.610
428.00	93.606
427.50	93.534
427.00	93.457
426.50	93.392
426.00	93.328
425.50	93.302
425.00	93.260
424.50	93.264
424.00	93.366
423.50	93.425
423.00	93.428
422.50	93.412
422.00	93.342
421.50	93.335
421.00	93.427
420.50	93.482
420.00	93.543
419.50	93.598
419.00	93.573
418.50	93.491
418.00	93.451
417.50	93.490
417.00	93.640
416.50	93.748
416.00	93.767
415.50	93.629
415.00	93.362
414.50	93.075
414.00	92.868
413.50	92.691
413.00	92.722
412.50	92.882
412.00	92.985
411.50	92.952
411.00	92.833
410.50	92.619
410.00	92.438
409.50	92.302
409.00	92.183
408.50	92.100
408.00	92.079
407.50	92.078
407.00	92.094
406.50	92.084
406.00	92.147
405.50	92.298
405.00	92.454
404.50	92.548
404.00	92.606
403.50	92.521
403.00	92.481
402.50	92.444
402.00	92.330
401.50	92.214
401.00	92.153
400.50	91.986
400.00	91.850
399.50	91.673
399.00	91.493
398.50	91.490
398.00	91.619
397.50	91.736
397.00	91.823
396.50	91.773
396.00	91.622
395.50	91.377
395.00	91.015
394.50	90.737
394.00	90.728
393.50	90.854
393.00	91.190
392.50	91.549
392.00	91.721
391.50	91.779
391.00	91.694
390.50	91.357
390.00	91.083
389.50	90.896
389.00	90.725
388.50	90.525
388.00	90.208
387.50	89.889
387.00	89.671
386.50	89.549
386.00	89.604
385.50	89.753
385.00	90.015
384.50	90.455
384.00	90.881
383.50	91.135
383.00	91.254
382.50	91.170
382.00	91.007
381.50	90.722
381.00	90.323
380.50	89.877
380.00	89.467
379.50	89.212
379.00	89.226
378.50	89.235
378.00	89.269
377.50	89.292
377.00	89.279
376.50	89.323
376.00	89.334
375.50	89.110
375.00	88.838
374.50	88.600
374.00	88.428
373.50	88.417
373.00	88.510
372.50	88.499
372.00	88.306
371.50	87.866
371.00	87.205
370.50	86.566
370.00	86.098
369.50	85.899
369.00	85.995
368.50	86.190
368.00	86.366
367.50	86.587
367.00	86.714
366.50	86.787
366.00	86.914
365.50	87.041
365.00	87.018
364.50	86.824
364.00	86.373
363.50	85.650
363.00	84.692
362.50	83.831
362.00	83.122
361.50	82.565
361.00	82.163
360.50	81.905
360.00	81.856
359.50	82.222
359.00	82.621
358.50	82.873
358.00	82.787
357.50	82.240
357.00	81.457
356.50	80.586
356.00	79.656
355.50	79.051
355.00	78.686
354.50	78.530
354.00	78.545
353.50	78.286
353.00	77.795
352.50	77.331
352.00	76.639
351.50	75.966
351.00	75.539
350.50	75.045
350.00	74.692
349.50	74.386
349.00	74.045
348.50	73.647
348.00	73.054
347.50	72.109
347.00	71.105
346.50	69.949
346.00	69.083
345.50	68.546
345.00	68.247
344.50	67.928
344.00	67.462
343.50	66.664
343.00	65.692
342.50	64.541
342.00	63.471
341.50	62.623
341.00	61.894
340.50	61.272
340.00	60.378
339.50	59.010
339.00	57.539
338.50	56.250
338.00	55.221
337.50	54.496
337.00	53.666
336.50	52.627
336.00	51.160
335.50	49.454
335.00	47.562
334.50	45.573
334.00	43.901
333.50	42.900
333.00	42.132
332.50	41.477
332.00	40.782
331.50	39.715
331.00	38.148
330.50	36.259
330.00	34.250
329.50	32.210
329.00	30.491
328.50	29.253
328.00	28.232
327.50	26.973
327.00	25.736
326.50	24.320
326.00	22.689
325.50	20.969
325.00	19.355
324.50	17.858
324.00	16.772
323.50	15.761
323.00	14.739
322.50	13.432
322.00	12.053
321.50	10.829
321.00	9.763
320.50	8.636
320.00	7.518
319.50	6.493
319.00	5.653
318.50	4.959
318.00	4.268
317.50	3.515
317.00	2.806
316.50	2.194
316.00	1.687
315.50	1.294
315.00	0.927
314.50	0.661
314.00	0.540
313.50	0.481
313.00	0.423
312.50	0.347
312.00	0.237
311.50	0.107
311.00	0.016
310.50	-0.050
310.00	-0.078
309.50	-0.064
309.00	-0.027
308.50	0.025
308.00	0.088
307.50	0.110
307.00	0.146
306.50	0.185
306.00	0.204
305.50	0.198
305.00	0.178
304.50	0.132
304.00	0.115
303.50	0.095
303.00	0.075
302.50	0.046
302.00	0.023
301.50	-0.009
301.00	-0.034
300.50	-0.063
300.00	-0.103

