Sample:	'Air
File name:	Air.UDS
Run Date:	'14:49:21, 02/14/2024
Operator:	Kings College Spec
Comment:	'

Instrument
Model:	U-4100 Spectrophotometer(Solid)
Serial Number:	'
ROM Version:	5300 04

Instrument Parameters
Measurement Type:	Wavelength Scan
Data Mode:	%T
Start Wavelength:	800.00 nm
End Wavelength:	300.00 nm
Scan Speed:	300 nm/min
Sampling Interval:	0.50 nm
Delay:	0 s
Cycle Time:	0.0 min
Replicates:	1
Auto Zero before each run:	Off
Slit Width:	2.00 nm
PMT Voltage:	Auto1
Lamp Change Mode:	Auto
Lamp Change Wavelength:	340.00 nm
Baseline Correction:	User 1
High Resolution:	Off
D2 Lamp:	On
WI Lamp:	On
R/S Reverse:	Off
Attenuation:	'None
--- NIR ---
Scan Speed:	1500 nm/min
Slit:	6.0 nm
PbS Gain:	1
Detector change correct:	ON
Detector change Wavelength:	850.0 nm
Light control:	Auto change
--------------
Path Length:	2.0 mm

Processing Performed
Savitsky-Golay Smoothed
Smoothing Order:	3
Number of Points:	7
Number of Times:	1

Data Points
nm	%T
800.00	101.303
799.50	101.277
799.00	101.142
798.50	100.904
798.00	100.518
797.50	100.109
797.00	99.792
796.50	99.571
796.00	99.605
795.50	99.841
795.00	100.034
794.50	100.167
794.00	100.195
793.50	100.035
793.00	99.826
792.50	99.592
792.00	99.456
791.50	99.524
791.00	99.703
790.50	100.066
790.00	100.445
789.50	100.644
789.00	100.747
788.50	100.786
788.00	100.624
787.50	100.581
787.00	100.522
786.50	100.428
786.00	100.341
785.50	100.292
785.00	100.379
784.50	100.629
784.00	100.874
783.50	101.126
783.00	101.195
782.50	101.076
782.00	100.985
781.50	100.897
781.00	100.775
780.50	100.739
780.00	100.623
779.50	100.483
779.00	100.319
778.50	100.171
778.00	100.084
777.50	100.139
777.00	100.224
776.50	100.373
776.00	100.390
775.50	100.353
775.00	100.277
774.50	100.240
774.00	100.274
773.50	100.420
773.00	100.509
772.50	100.591
772.00	100.529
771.50	100.340
771.00	100.082
770.50	99.893
770.00	99.782
769.50	99.860
769.00	100.025
768.50	100.202
768.00	100.231
767.50	100.171
767.00	99.969
766.50	99.838
766.00	99.819
765.50	99.999
765.00	100.320
764.50	100.697
764.00	100.976
763.50	101.155
763.00	101.195
762.50	101.125
762.00	101.038
761.50	100.865
761.00	100.673
760.50	100.508
760.00	100.269
759.50	100.041
759.00	99.902
758.50	99.769
758.00	99.778
757.50	99.900
757.00	99.958
756.50	100.003
756.00	100.072
755.50	100.101
755.00	100.199
754.50	100.253
754.00	100.273
753.50	100.322
753.00	100.352
752.50	100.297
752.00	100.227
751.50	100.070
751.00	100.006
750.50	100.048
750.00	100.090
749.50	100.048
749.00	100.014
748.50	99.940
748.00	99.954
747.50	99.966
747.00	99.993
746.50	100.106
746.00	100.328
745.50	100.511
745.00	100.622
744.50	100.583
744.00	100.481
743.50	100.431
743.00	100.370
742.50	100.233
742.00	100.100
741.50	100.002
741.00	99.984
740.50	100.007
740.00	100.015
739.50	100.044
739.00	100.137
738.50	100.282
738.00	100.429
737.50	100.470
737.00	100.411
736.50	100.333
736.00	100.173
735.50	99.973
735.00	99.827
734.50	99.774
734.00	99.881
733.50	100.093
733.00	100.262
732.50	100.347
732.00	100.351
731.50	100.287
731.00	100.232
730.50	100.162
730.00	100.159
729.50	100.206
729.00	100.237
728.50	100.232
728.00	100.189
727.50	100.072
727.00	100.003
726.50	99.986
726.00	100.034
725.50	100.185
725.00	100.357
724.50	100.420
724.00	100.400
723.50	100.233
723.00	100.078
722.50	99.974
722.00	99.944
721.50	100.000
721.00	100.147
720.50	100.229
720.00	100.255
719.50	100.152
719.00	99.997
718.50	99.880
718.00	99.883
717.50	99.964
717.00	100.086
716.50	100.121
716.00	100.140
715.50	100.150
715.00	100.180
714.50	100.265
714.00	100.390
713.50	100.436
713.00	100.445
712.50	100.400
712.00	100.297
711.50	100.161
711.00	100.084
710.50	100.072
710.00	100.141
709.50	100.222
709.00	100.260
708.50	100.214
708.00	100.133
707.50	100.056
707.00	99.988
706.50	99.928
706.00	99.938
705.50	100.019
705.00	100.078
704.50	100.101
704.00	100.041
703.50	99.977
703.00	100.022
702.50	100.170
702.00	100.309
701.50	100.387
701.00	100.381
700.50	100.326
700.00	100.252
699.50	100.190
699.00	100.162
698.50	100.184
698.00	100.219
697.50	100.265
697.00	100.241
696.50	100.177
696.00	100.161
695.50	100.199
695.00	100.243
694.50	100.308
694.00	100.324
693.50	100.285
693.00	100.239
692.50	100.217
692.00	100.244
691.50	100.304
691.00	100.350
690.50	100.335
690.00	100.256
689.50	100.167
689.00	100.116
688.50	100.106
688.00	100.085
687.50	100.039
687.00	100.009
686.50	100.024
686.00	100.062
685.50	100.118
685.00	100.195
684.50	100.241
684.00	100.277
683.50	100.289
683.00	100.236
682.50	100.151
682.00	100.125
681.50	100.161
681.00	100.224
680.50	100.265
680.00	100.274
679.50	100.265
679.00	100.218
678.50	100.161
678.00	100.132
677.50	100.115
677.00	100.092
676.50	100.047
676.00	99.949
675.50	99.781
675.00	99.709
674.50	99.730
674.00	99.813
673.50	99.963
673.00	100.150
672.50	100.329
672.00	100.468
671.50	100.519
671.00	100.481
670.50	100.438
670.00	100.418
669.50	100.428
669.00	100.411
668.50	100.345
668.00	100.268
667.50	100.177
667.00	100.082
666.50	99.989
666.00	99.946
665.50	99.984
665.00	100.043
664.50	100.139
664.00	100.193
663.50	100.230
663.00	100.250
662.50	100.245
662.00	100.107
661.50	99.991
661.00	99.902
660.50	99.907
660.00	99.974
659.50	100.030
659.00	100.053
658.50	100.081
658.00	100.071
657.50	100.119
657.00	100.167
656.50	100.249
656.00	100.377
655.50	100.519
655.00	100.544
654.50	100.487
654.00	100.309
653.50	100.145
653.00	100.005
652.50	99.958
652.00	100.016
651.50	100.124
651.00	100.230
650.50	100.323
650.00	100.305
649.50	100.230
649.00	100.143
648.50	100.110
648.00	100.165
647.50	100.317
647.00	100.451
646.50	100.553
646.00	100.546
645.50	100.423
645.00	100.213
644.50	99.988
644.00	99.830
643.50	99.802
643.00	99.863
642.50	99.951
642.00	100.016
641.50	100.041
641.00	100.044
640.50	100.065
640.00	100.073
639.50	100.119
639.00	100.227
638.50	100.373
638.00	100.446
637.50	100.455
637.00	100.376
636.50	100.263
636.00	100.177
635.50	100.153
635.00	100.137
634.50	100.208
634.00	100.301
633.50	100.359
633.00	100.320
632.50	100.187
632.00	100.022
631.50	99.962
631.00	99.985
630.50	100.057
630.00	100.101
629.50	100.113
629.00	100.108
628.50	100.104
628.00	100.046
627.50	100.007
627.00	99.991
626.50	100.044
626.00	100.126
625.50	100.176
625.00	100.158
624.50	100.178
624.00	100.237
623.50	100.325
623.00	100.392
622.50	100.431
622.00	100.404
621.50	100.328
621.00	100.207
620.50	100.051
620.00	99.935
619.50	99.918
619.00	99.974
618.50	100.064
618.00	100.141
617.50	100.191
617.00	100.211
616.50	100.176
616.00	100.140
615.50	100.159
615.00	100.218
614.50	100.323
614.00	100.415
613.50	100.458
613.00	100.436
612.50	100.346
612.00	100.210
611.50	100.096
611.00	100.017
610.50	100.016
610.00	100.069
609.50	100.108
609.00	100.162
608.50	100.216
608.00	100.241
607.50	100.240
607.00	100.207
606.50	100.185
606.00	100.200
605.50	100.254
605.00	100.285
604.50	100.316
604.00	100.277
603.50	100.220
603.00	100.134
602.50	100.083
602.00	100.053
601.50	100.078
601.00	100.091
600.50	100.087
600.00	100.025
599.50	99.935
599.00	99.854
598.50	99.855
598.00	99.918
597.50	100.076
597.00	100.270
596.50	100.404
596.00	100.418
595.50	100.386
595.00	100.273
594.50	100.181
594.00	100.152
593.50	100.170
593.00	100.189
592.50	100.205
592.00	100.145
591.50	100.046
591.00	99.973
590.50	99.927
590.00	99.942
589.50	99.992
589.00	100.041
588.50	100.109
588.00	100.175
587.50	100.181
587.00	100.169
586.50	100.158
586.00	100.171
585.50	100.239
585.00	100.280
584.50	100.230
584.00	100.177
583.50	100.116
583.00	100.067
582.50	100.093
582.00	100.128
581.50	100.136
581.00	100.174
580.50	100.180
580.00	100.131
579.50	100.058
579.00	99.969
578.50	99.922
578.00	99.930
577.50	99.970
577.00	100.050
576.50	100.129
576.00	100.180
575.50	100.253
575.00	100.293
574.50	100.293
574.00	100.270
573.50	100.247
573.00	100.221
572.50	100.215
572.00	100.211
571.50	100.253
571.00	100.281
570.50	100.296
570.00	100.258
569.50	100.159
569.00	100.016
568.50	99.917
568.00	99.845
567.50	99.852
567.00	99.905
566.50	100.009
566.00	100.122
565.50	100.220
565.00	100.213
564.50	100.180
564.00	100.121
563.50	100.056
563.00	100.001
562.50	99.972
562.00	99.925
561.50	99.937
561.00	99.974
560.50	100.022
560.00	100.083
559.50	100.156
559.00	100.175
558.50	100.202
558.00	100.179
557.50	100.151
557.00	100.146
556.50	100.134
556.00	100.084
555.50	100.058
555.00	100.025
554.50	100.023
554.00	100.030
553.50	99.999
553.00	99.971
552.50	99.970
552.00	99.933
551.50	99.926
551.00	99.940
550.50	99.932
550.00	99.926
549.50	99.913
549.00	99.841
548.50	99.786
548.00	99.762
547.50	99.767
547.00	99.831
546.50	99.901
546.00	99.981
545.50	100.069
545.00	100.114
544.50	100.147
544.00	100.205
543.50	100.253
543.00	100.282
542.50	100.296
542.00	100.270
541.50	100.238
541.00	100.200
540.50	100.150
540.00	100.099
539.50	100.027
539.00	99.991
538.50	100.012
538.00	100.069
537.50	100.108
537.00	100.153
536.50	100.131
536.00	100.070
535.50	100.017
535.00	99.982
534.50	99.977
534.00	100.042
533.50	100.134
533.00	100.214
532.50	100.248
532.00	100.198
531.50	100.078
531.00	99.928
530.50	99.774
530.00	99.714
529.50	99.716
529.00	99.810
528.50	99.994
528.00	100.176
527.50	100.280
527.00	100.347
526.50	100.325
526.00	100.246
525.50	100.194
525.00	100.132
524.50	100.110
524.00	100.135
523.50	100.198
523.00	100.222
522.50	100.204
522.00	100.121
521.50	100.082
521.00	100.077
520.50	100.146
520.00	100.276
519.50	100.420
519.00	100.486
518.50	100.476
518.00	100.353
517.50	100.177
517.00	99.991
516.50	99.890
516.00	99.855
515.50	99.889
515.00	99.998
514.50	100.153
514.00	100.230
513.50	100.240
513.00	100.193
512.50	100.113
512.00	100.069
511.50	100.047
511.00	100.058
510.50	100.103
510.00	100.186
509.50	100.282
509.00	100.351
508.50	100.299
508.00	100.218
507.50	100.146
507.00	100.065
506.50	100.020
506.00	100.016
505.50	99.989
505.00	99.997
504.50	100.010
504.00	100.001
503.50	100.028
503.00	100.121
502.50	100.204
502.00	100.269
501.50	100.252
501.00	100.175
500.50	100.075
500.00	99.986
499.50	99.909
499.00	99.908
498.50	99.965
498.00	100.059
497.50	100.132
497.00	100.114
496.50	100.038
496.00	99.981
495.50	99.943
495.00	99.958
494.50	99.972
494.00	99.983
493.50	99.971
493.00	99.961
492.50	99.950
492.00	99.979
491.50	100.016
491.00	100.077
490.50	100.128
490.00	100.155
489.50	100.181
489.00	100.185
488.50	100.191
488.00	100.202
487.50	100.213
487.00	100.255
486.50	100.326
486.00	100.375
485.50	100.448
485.00	100.486
484.50	100.478
484.00	100.452
483.50	100.380
483.00	100.279
482.50	100.207
482.00	100.116
481.50	100.079
481.00	100.028
480.50	99.967
480.00	99.920
479.50	99.890
479.00	99.929
478.50	100.047
478.00	100.113
477.50	100.106
477.00	100.027
476.50	99.909
476.00	99.848
475.50	99.867
475.00	99.947
474.50	100.134
474.00	100.376
473.50	100.572
473.00	100.604
472.50	100.456
472.00	100.240
471.50	100.097
471.00	100.069
470.50	100.138
470.00	100.234
469.50	100.338
469.00	100.401
468.50	100.412
468.00	100.342
467.50	100.222
467.00	100.137
466.50	100.105
466.00	100.037
465.50	99.956
465.00	99.840
464.50	99.729
464.00	99.685
463.50	99.734
463.00	99.850
462.50	99.995
462.00	100.133
461.50	100.232
461.00	100.222
460.50	100.111
460.00	99.975
459.50	99.870
459.00	99.828
458.50	99.858
458.00	99.921
457.50	99.954
457.00	99.971
456.50	99.921
456.00	99.798
455.50	99.640
455.00	99.573
454.50	99.656
454.00	99.866
453.50	100.088
453.00	100.248
452.50	100.264
452.00	100.203
451.50	100.093
451.00	99.907
450.50	99.685
450.00	99.537
449.50	99.482
449.00	99.569
448.50	99.818
448.00	100.113
447.50	100.360
447.00	100.548
446.50	100.615
446.00	100.576
445.50	100.408
445.00	100.202
444.50	99.999
444.00	99.915
443.50	99.982
443.00	100.125
442.50	100.167
442.00	100.118
441.50	100.024
441.00	99.998
440.50	100.038
440.00	100.072
439.50	100.047
439.00	99.986
438.50	99.895
438.00	99.869
437.50	99.794
437.00	99.719
436.50	99.767
436.00	99.893
435.50	100.033
435.00	100.170
434.50	100.104
434.00	99.930
433.50	99.807
433.00	99.646
432.50	99.572
432.00	99.597
431.50	99.655
431.00	99.812
430.50	100.000
430.00	100.093
429.50	100.200
429.00	100.232
428.50	100.256
428.00	100.351
427.50	100.385
427.00	100.420
426.50	100.482
426.00	100.435
425.50	100.344
425.00	100.268
424.50	100.105
424.00	100.015
423.50	100.006
423.00	100.038
422.50	100.089
422.00	100.159
421.50	100.214
421.00	100.246
420.50	100.214
420.00	100.234
419.50	100.223
419.00	100.247
418.50	100.377
418.00	100.580
417.50	100.722
417.00	100.871
416.50	100.897
416.00	100.791
415.50	100.621
415.00	100.468
414.50	100.344
414.00	100.270
413.50	100.237
413.00	100.174
412.50	100.098
412.00	100.009
411.50	99.961
411.00	100.002
410.50	100.125
410.00	100.320
409.50	100.503
409.00	100.562
408.50	100.530
408.00	100.456
407.50	100.307
407.00	100.200
406.50	100.112
406.00	99.990
405.50	99.999
405.00	100.078
404.50	100.044
404.00	100.066
403.50	99.997
403.00	99.905
402.50	99.874
402.00	99.869
401.50	99.776
401.00	99.804
400.50	99.805
400.00	99.913
399.50	100.062
399.00	100.206
398.50	100.270
398.00	100.326
397.50	100.249
397.00	100.153
396.50	100.005
396.00	99.918
395.50	99.902
395.00	100.034
394.50	100.198
394.00	100.413
393.50	100.506
393.00	100.431
392.50	100.233
392.00	100.046
391.50	99.943
391.00	99.990
390.50	100.171
390.00	100.311
389.50	100.395
389.00	100.419
388.50	100.353
388.00	100.307
387.50	100.336
387.00	100.268
386.50	100.132
386.00	99.904
385.50	99.719
385.00	99.758
384.50	99.995
384.00	100.197
383.50	100.461
383.00	100.532
382.50	100.423
382.00	100.130
381.50	99.721
381.00	99.449
380.50	99.516
380.00	99.811
379.50	100.199
379.00	100.396
378.50	100.298
378.00	100.187
377.50	99.960
377.00	99.749
376.50	99.749
376.00	99.784
375.50	99.898
375.00	100.116
374.50	100.239
374.00	100.245
373.50	100.155
373.00	99.899
372.50	99.596
372.00	99.248
371.50	98.979
371.00	98.889
370.50	99.012
370.00	99.337
369.50	99.693
369.00	99.803
368.50	99.679
368.00	99.359
367.50	99.175
367.00	99.224
366.50	99.537
366.00	100.016
365.50	100.639
365.00	101.126
364.50	101.384
364.00	101.156
363.50	100.560
363.00	99.850
362.50	99.409
362.00	99.327
361.50	99.439
361.00	99.615
360.50	99.978
360.00	100.483
359.50	101.095
359.00	101.589
358.50	101.694
358.00	101.530
357.50	101.279
357.00	100.936
356.50	100.589
356.00	100.252
355.50	100.162
355.00	100.362
354.50	100.417
354.00	100.156
353.50	99.677
353.00	99.171
352.50	99.284
352.00	99.799
351.50	100.255
351.00	100.685
350.50	101.041
350.00	101.123
349.50	101.270
349.00	101.121
348.50	100.801
348.00	100.572
347.50	100.440
347.00	100.142
346.50	99.893
346.00	99.664
345.50	99.935
345.00	100.367
344.50	100.711
344.00	100.780
343.50	100.606
343.00	100.341
342.50	100.299
342.00	100.293
341.50	100.428
341.00	100.643
340.50	101.238
340.00	102.193
339.50	103.242
339.00	103.973
338.50	104.385
338.00	103.973
337.50	103.438
337.00	102.967
336.50	102.596
336.00	102.119
335.50	101.638
335.00	100.781
334.50	99.841
334.00	98.472
333.50	96.999
333.00	96.276
332.50	96.524
332.00	97.790
331.50	99.526
331.00	100.578
330.50	100.354
330.00	99.527
329.50	98.338
329.00	97.619
328.50	97.863
328.00	99.180
327.50	101.034
327.00	103.371
326.50	104.949
326.00	105.943
325.50	105.425
325.00	103.903
324.50	101.892
324.00	100.437
323.50	99.228
323.00	99.251
322.50	99.463
322.00	100.321
321.50	100.947
321.00	101.201
320.50	100.287
320.00	99.030
319.50	97.479
319.00	97.142
318.50	97.726
318.00	99.344
317.50	101.243
317.00	102.871
316.50	103.431
316.00	103.144
315.50	102.152
315.00	101.367
314.50	101.326
314.00	102.275
313.50	103.592
313.00	104.609
312.50	104.720
312.00	103.767
311.50	102.540
311.00	101.237
310.50	99.712
310.00	98.672
309.50	97.891
309.00	97.804
308.50	98.488
308.00	99.074
307.50	99.627
307.00	100.458
306.50	101.071
306.00	101.249
305.50	100.234
305.00	98.369
304.50	97.219
304.00	97.369
303.50	98.810
303.00	101.127
302.50	103.039
302.00	104.604
301.50	105.455
301.00	105.326
300.50	104.280
300.00	102.269

