Sample:	'Red_filter_silica
File name:	Red_filter_silica.UDS
Run Date:	'15:03:47, 02/14/2024
Operator:	Kings College Spec
Comment:	'

Instrument
Model:	U-4100 Spectrophotometer(Solid)
Serial Number:	'
ROM Version:	5300 04

Instrument Parameters
Measurement Type:	Wavelength Scan
Data Mode:	%T
Start Wavelength:	800.00 nm
End Wavelength:	300.00 nm
Scan Speed:	300 nm/min
Sampling Interval:	0.50 nm
Delay:	0 s
Cycle Time:	0.0 min
Replicates:	1
Auto Zero before each run:	Off
Slit Width:	2.00 nm
PMT Voltage:	Auto1
Lamp Change Mode:	Auto
Lamp Change Wavelength:	340.00 nm
Baseline Correction:	User 1
High Resolution:	Off
D2 Lamp:	On
WI Lamp:	On
R/S Reverse:	Off
Attenuation:	'None
--- NIR ---
Scan Speed:	1500 nm/min
Slit:	6.0 nm
PbS Gain:	1
Detector change correct:	ON
Detector change Wavelength:	850.0 nm
Light control:	Auto change
--------------
Path Length:	2.0 mm

Processing Performed
Savitsky-Golay Smoothed
Smoothing Order:	3
Number of Points:	7
Number of Times:	1

Data Points
nm	%T
800.00	97.320
799.50	97.194
799.00	97.142
798.50	97.116
798.00	97.035
797.50	96.936
797.00	96.801
796.50	96.574
796.00	96.397
795.50	96.282
795.00	96.192
794.50	96.273
794.00	96.421
793.50	96.486
793.00	96.496
792.50	96.346
792.00	96.150
791.50	96.131
791.00	96.284
790.50	96.687
790.00	97.101
789.50	97.315
789.00	97.324
788.50	97.213
788.00	96.968
787.50	96.946
787.00	97.000
786.50	97.130
786.00	97.272
785.50	97.281
785.00	97.134
784.50	96.982
784.00	96.787
783.50	96.655
783.00	96.588
782.50	96.492
782.00	96.462
781.50	96.524
781.00	96.535
780.50	96.608
780.00	96.684
779.50	96.798
779.00	96.868
778.50	96.926
778.00	96.907
777.50	97.004
777.00	97.033
776.50	97.005
776.00	96.815
775.50	96.591
775.00	96.375
774.50	96.299
774.00	96.314
773.50	96.438
773.00	96.639
772.50	96.956
772.00	97.234
771.50	97.402
771.00	97.347
770.50	97.235
770.00	97.059
769.50	96.844
769.00	96.576
768.50	96.446
768.00	96.316
767.50	96.306
767.00	96.346
766.50	96.343
766.00	96.333
765.50	96.434
765.00	96.654
764.50	96.915
764.00	97.088
763.50	97.120
763.00	97.110
762.50	96.953
762.00	96.805
761.50	96.708
761.00	96.641
760.50	96.709
760.00	96.809
759.50	96.781
759.00	96.715
758.50	96.624
758.00	96.576
757.50	96.646
757.00	96.754
756.50	96.780
756.00	96.890
755.50	96.996
755.00	97.091
754.50	97.170
754.00	97.217
753.50	97.225
753.00	97.278
752.50	97.252
752.00	97.195
751.50	97.066
751.00	96.871
750.50	96.712
750.00	96.664
749.50	96.582
749.00	96.622
748.50	96.714
748.00	96.853
747.50	96.996
747.00	97.108
746.50	97.131
746.00	97.139
745.50	97.113
745.00	97.110
744.50	97.110
744.00	97.080
743.50	97.098
743.00	97.119
742.50	97.098
742.00	97.070
741.50	97.044
741.00	97.011
740.50	96.965
740.00	96.877
739.50	96.821
739.00	96.808
738.50	96.865
738.00	96.951
737.50	97.015
737.00	97.038
736.50	97.098
736.00	97.098
735.50	97.043
735.00	96.955
734.50	96.931
734.00	97.007
733.50	97.150
733.00	97.246
732.50	97.306
732.00	97.330
731.50	97.303
731.00	97.255
730.50	97.160
730.00	97.037
729.50	96.949
729.00	96.912
728.50	96.888
728.00	96.899
727.50	96.942
727.00	96.993
726.50	97.022
726.00	97.031
725.50	97.066
725.00	97.143
724.50	97.222
724.00	97.301
723.50	97.316
723.00	97.273
722.50	97.174
722.00	97.018
721.50	96.850
721.00	96.797
720.50	96.841
720.00	96.989
719.50	97.133
719.00	97.187
718.50	97.174
718.00	97.154
717.50	97.104
717.00	97.081
716.50	96.992
716.00	96.898
715.50	96.841
715.00	96.807
714.50	96.853
714.00	96.987
713.50	97.072
713.00	97.161
712.50	97.200
712.00	97.143
711.50	97.070
711.00	97.006
710.50	96.953
710.00	96.967
709.50	96.987
709.00	96.997
708.50	96.954
708.00	96.894
707.50	96.879
707.00	96.908
706.50	96.980
706.00	97.087
705.50	97.131
705.00	97.117
704.50	97.083
704.00	97.026
703.50	97.056
703.00	97.182
702.50	97.323
702.00	97.442
701.50	97.476
701.00	97.440
700.50	97.400
700.00	97.323
699.50	97.263
699.00	97.275
698.50	97.321
698.00	97.382
697.50	97.438
697.00	97.382
696.50	97.292
696.00	97.256
695.50	97.222
695.00	97.184
694.50	97.164
694.00	97.138
693.50	97.200
693.00	97.346
692.50	97.502
692.00	97.630
691.50	97.680
691.00	97.632
690.50	97.533
690.00	97.367
689.50	97.227
689.00	97.198
688.50	97.250
688.00	97.325
687.50	97.379
687.00	97.350
686.50	97.279
686.00	97.212
685.50	97.152
685.00	97.117
684.50	97.137
684.00	97.163
683.50	97.185
683.00	97.152
682.50	97.080
682.00	97.042
681.50	97.091
681.00	97.163
680.50	97.266
680.00	97.348
679.50	97.369
679.00	97.317
678.50	97.231
678.00	97.122
677.50	97.056
677.00	96.992
676.50	96.947
676.00	96.889
675.50	96.801
675.00	96.684
674.50	96.579
674.00	96.490
673.50	96.499
673.00	96.623
672.50	96.780
672.00	96.883
671.50	96.910
671.00	96.888
670.50	96.875
670.00	96.879
669.50	96.891
669.00	96.931
668.50	96.970
668.00	96.950
667.50	96.851
667.00	96.683
666.50	96.498
666.00	96.413
665.50	96.457
665.00	96.567
664.50	96.663
664.00	96.690
663.50	96.624
663.00	96.470
662.50	96.217
662.00	95.927
661.50	95.675
661.00	95.517
660.50	95.458
660.00	95.492
659.50	95.495
659.00	95.472
658.50	95.441
658.00	95.408
657.50	95.359
657.00	95.305
656.50	95.208
656.00	95.080
655.50	94.890
655.00	94.625
654.50	94.362
654.00	94.130
653.50	93.937
653.00	93.811
652.50	93.688
652.00	93.543
651.50	93.356
651.00	93.152
650.50	92.889
650.00	92.629
649.50	92.383
649.00	92.188
648.50	92.022
648.00	91.864
647.50	91.686
647.00	91.444
646.50	91.144
646.00	90.765
645.50	90.299
645.00	89.710
644.50	89.058
644.00	88.428
643.50	87.851
643.00	87.313
642.50	86.762
642.00	86.200
641.50	85.661
641.00	85.159
640.50	84.635
640.00	84.022
639.50	83.324
639.00	82.609
638.50	81.933
638.00	81.213
637.50	80.438
637.00	79.538
636.50	78.559
636.00	77.550
635.50	76.499
635.00	75.365
634.50	74.223
634.00	73.051
633.50	71.839
633.00	70.582
632.50	69.230
632.00	67.786
631.50	66.342
631.00	64.900
630.50	63.446
630.00	61.949
629.50	60.369
629.00	58.741
628.50	57.068
628.00	55.336
627.50	53.591
627.00	51.835
626.50	50.060
626.00	48.282
625.50	46.474
625.00	44.614
624.50	42.752
624.00	40.889
623.50	39.020
623.00	37.153
622.50	35.288
622.00	33.436
621.50	31.608
621.00	29.815
620.50	28.047
620.00	26.340
619.50	24.695
619.00	23.113
618.50	21.585
618.00	20.116
617.50	18.699
617.00	17.333
616.50	16.020
616.00	14.763
615.50	13.567
615.00	12.445
614.50	11.394
614.00	10.413
613.50	9.495
613.00	8.647
612.50	7.856
612.00	7.124
611.50	6.445
611.00	5.824
610.50	5.257
610.00	4.745
609.50	4.278
609.00	3.854
608.50	3.466
608.00	3.115
607.50	2.798
607.00	2.516
606.50	2.262
606.00	2.031
605.50	1.819
605.00	1.629
604.50	1.462
604.00	1.316
603.50	1.188
603.00	1.074
602.50	0.974
602.00	0.883
601.50	0.800
601.00	0.723
600.50	0.652
600.00	0.588
599.50	0.532
599.00	0.483
598.50	0.440
598.00	0.401
597.50	0.365
597.00	0.332
596.50	0.304
596.00	0.279
595.50	0.257
595.00	0.237
594.50	0.218
594.00	0.201
593.50	0.186
593.00	0.171
592.50	0.158
592.00	0.146
591.50	0.136
591.00	0.127
590.50	0.119
590.00	0.112
589.50	0.105
589.00	0.098
588.50	0.093
588.00	0.088
587.50	0.083
587.00	0.079
586.50	0.074
586.00	0.069
585.50	0.065
585.00	0.061
584.50	0.057
584.00	0.053
583.50	0.050
583.00	0.047
582.50	0.045
582.00	0.043
581.50	0.041
581.00	0.040
580.50	0.038
580.00	0.037
579.50	0.036
579.00	0.035
578.50	0.034
578.00	0.032
577.50	0.031
577.00	0.030
576.50	0.029
576.00	0.029
575.50	0.029
575.00	0.028
574.50	0.028
574.00	0.027
573.50	0.026
573.00	0.024
572.50	0.023
572.00	0.023
571.50	0.022
571.00	0.021
570.50	0.021
570.00	0.020
569.50	0.019
569.00	0.019
568.50	0.019
568.00	0.018
567.50	0.017
567.00	0.016
566.50	0.016
566.00	0.015
565.50	0.015
565.00	0.015
564.50	0.015
564.00	0.015
563.50	0.014
563.00	0.014
562.50	0.013
562.00	0.012
561.50	0.012
561.00	0.011
560.50	0.011
560.00	0.011
559.50	0.011
559.00	0.012
558.50	0.012
558.00	0.012
557.50	0.012
557.00	0.011
556.50	0.011
556.00	0.010
555.50	0.010
555.00	0.009
554.50	0.009
554.00	0.009
553.50	0.009
553.00	0.010
552.50	0.010
552.00	0.011
551.50	0.011
551.00	0.010
550.50	0.010
550.00	0.010
549.50	0.009
549.00	0.009
548.50	0.008
548.00	0.007
547.50	0.007
547.00	0.007
546.50	0.008
546.00	0.008
545.50	0.008
545.00	0.008
544.50	0.008
544.00	0.008
543.50	0.008
543.00	0.007
542.50	0.007
542.00	0.007
541.50	0.007
541.00	0.007
540.50	0.007
540.00	0.007
539.50	0.007
539.00	0.007
538.50	0.007
538.00	0.006
537.50	0.006
537.00	0.006
536.50	0.006
536.00	0.006
535.50	0.006
535.00	0.007
534.50	0.007
534.00	0.007
533.50	0.006
533.00	0.006
532.50	0.006
532.00	0.006
531.50	0.006
531.00	0.006
530.50	0.006
530.00	0.006
529.50	0.006
529.00	0.006
528.50	0.006
528.00	0.006
527.50	0.006
527.00	0.006
526.50	0.006
526.00	0.006
525.50	0.005
525.00	0.005
524.50	0.005
524.00	0.005
523.50	0.005
523.00	0.005
522.50	0.005
522.00	0.006
521.50	0.006
521.00	0.006
520.50	0.006
520.00	0.006
519.50	0.006
519.00	0.006
518.50	0.006
518.00	0.006
517.50	0.006
517.00	0.006
516.50	0.006
516.00	0.007
515.50	0.007
515.00	0.007
514.50	0.006
514.00	0.006
513.50	0.006
513.00	0.006
512.50	0.006
512.00	0.006
511.50	0.006
511.00	0.006
510.50	0.006
510.00	0.005
509.50	0.005
509.00	0.005
508.50	0.005
508.00	0.005
507.50	0.005
507.00	0.005
506.50	0.005
506.00	0.005
505.50	0.006
505.00	0.006
504.50	0.005
504.00	0.005
503.50	0.005
503.00	0.006
502.50	0.006
502.00	0.006
501.50	0.007
501.00	0.007
500.50	0.006
500.00	0.006
499.50	0.006
499.00	0.006
498.50	0.006
498.00	0.006
497.50	0.005
497.00	0.005
496.50	0.005
496.00	0.005
495.50	0.006
495.00	0.006
494.50	0.006
494.00	0.006
493.50	0.006
493.00	0.006
492.50	0.006
492.00	0.006
491.50	0.006
491.00	0.006
490.50	0.006
490.00	0.006
489.50	0.006
489.00	0.006
488.50	0.006
488.00	0.006
487.50	0.006
487.00	0.006
486.50	0.006
486.00	0.006
485.50	0.006
485.00	0.007
484.50	0.007
484.00	0.006
483.50	0.006
483.00	0.006
482.50	0.005
482.00	0.005
481.50	0.005
481.00	0.005
480.50	0.005
480.00	0.005
479.50	0.006
479.00	0.006
478.50	0.006
478.00	0.006
477.50	0.006
477.00	0.006
476.50	0.006
476.00	0.006
475.50	0.006
475.00	0.006
474.50	0.006
474.00	0.005
473.50	0.005
473.00	0.005
472.50	0.005
472.00	0.005
471.50	0.006
471.00	0.007
470.50	0.007
470.00	0.008
469.50	0.007
469.00	0.006
468.50	0.006
468.00	0.006
467.50	0.006
467.00	0.006
466.50	0.006
466.00	0.006
465.50	0.006
465.00	0.006
464.50	0.006
464.00	0.006
463.50	0.006
463.00	0.006
462.50	0.006
462.00	0.005
461.50	0.006
461.00	0.006
460.50	0.006
460.00	0.005
459.50	0.005
459.00	0.005
458.50	0.004
458.00	0.004
457.50	0.005
457.00	0.005
456.50	0.006
456.00	0.007
455.50	0.007
455.00	0.007
454.50	0.006
454.00	0.006
453.50	0.005
453.00	0.005
452.50	0.005
452.00	0.004
451.50	0.004
451.00	0.004
450.50	0.004
450.00	0.005
449.50	0.005
449.00	0.006
448.50	0.006
448.00	0.006
447.50	0.006
447.00	0.006
446.50	0.007
446.00	0.007
445.50	0.007
445.00	0.007
444.50	0.007
444.00	0.006
443.50	0.006
443.00	0.005
442.50	0.005
442.00	0.006
441.50	0.006
441.00	0.006
440.50	0.006
440.00	0.006
439.50	0.007
439.00	0.008
438.50	0.008
438.00	0.008
437.50	0.008
437.00	0.007
436.50	0.007
436.00	0.007
435.50	0.008
435.00	0.009
434.50	0.009
434.00	0.009
433.50	0.009
433.00	0.008
432.50	0.007
432.00	0.006
431.50	0.005
431.00	0.006
430.50	0.006
430.00	0.007
429.50	0.007
429.00	0.008
428.50	0.008
428.00	0.007
427.50	0.007
427.00	0.007
426.50	0.007
426.00	0.008
425.50	0.008
425.00	0.008
424.50	0.008
424.00	0.007
423.50	0.007
423.00	0.008
422.50	0.009
422.00	0.011
421.50	0.012
421.00	0.011
420.50	0.011
420.00	0.010
419.50	0.009
419.00	0.008
418.50	0.007
418.00	0.006
417.50	0.006
417.00	0.007
416.50	0.008
416.00	0.009
415.50	0.010
415.00	0.011
414.50	0.012
414.00	0.012
413.50	0.012
413.00	0.011
412.50	0.010
412.00	0.009
411.50	0.008
411.00	0.008
410.50	0.009
410.00	0.009
409.50	0.009
409.00	0.009
408.50	0.008
408.00	0.007
407.50	0.005
407.00	0.005
406.50	0.005
406.00	0.007
405.50	0.008
405.00	0.009
404.50	0.010
404.00	0.009
403.50	0.009
403.00	0.008
402.50	0.008
402.00	0.007
401.50	0.007
401.00	0.006
400.50	0.005
400.00	0.004
399.50	0.004
399.00	0.004
398.50	0.005
398.00	0.007
397.50	0.009
397.00	0.010
396.50	0.011
396.00	0.010
395.50	0.008
395.00	0.007
394.50	0.007
394.00	0.008
393.50	0.010
393.00	0.010
392.50	0.009
392.00	0.008
391.50	0.007
391.00	0.005
390.50	0.005
390.00	0.006
389.50	0.008
389.00	0.009
388.50	0.007
388.00	0.004
387.50	0.001
387.00	0.000
386.50	0.001
386.00	0.002
385.50	0.004
385.00	0.004
384.50	0.005
384.00	0.006
383.50	0.007
383.00	0.008
382.50	0.008
382.00	0.008
381.50	0.008
381.00	0.007
380.50	0.007
380.00	0.008
379.50	0.009
379.00	0.010
378.50	0.011
378.00	0.008
377.50	0.006
377.00	0.005
376.50	0.006
376.00	0.008
375.50	0.009
375.00	0.011
374.50	0.011
374.00	0.008
373.50	0.005
373.00	0.001
372.50	-0.001
372.00	0.002
371.50	0.006
371.00	0.009
370.50	0.012
370.00	0.013
369.50	0.014
369.00	0.015
368.50	0.015
368.00	0.017
367.50	0.019
367.00	0.020
366.50	0.020
366.00	0.016
365.50	0.010
365.00	0.004
364.50	-0.002
364.00	-0.007
363.50	-0.010
363.00	-0.009
362.50	-0.006
362.00	-0.002
361.50	0.001
361.00	0.004
360.50	0.006
360.00	0.009
359.50	0.011
359.00	0.014
358.50	0.018
358.00	0.020
357.50	0.016
357.00	0.010
356.50	0.001
356.00	-0.006
355.50	-0.012
355.00	-0.014
354.50	-0.015
354.00	-0.009
353.50	-0.001
353.00	0.010
352.50	0.015
352.00	0.021
351.50	0.021
351.00	0.015
350.50	0.001
350.00	-0.009
349.50	-0.010
349.00	0.003
348.50	0.021
348.00	0.039
347.50	0.046
347.00	0.047
346.50	0.045
346.00	0.036
345.50	0.017
345.00	0.001
344.50	-0.013
344.00	-0.015
343.50	-0.017
343.00	-0.013
342.50	-0.010
342.00	0.012
341.50	0.022
341.00	0.028
340.50	0.022
340.00	0.018
339.50	0.017
339.00	0.046
338.50	0.071
338.00	0.091
337.50	0.105
337.00	0.103
336.50	0.073
336.00	0.036
335.50	-0.024
335.00	-0.066
334.50	-0.099
334.00	-0.123
333.50	-0.150
333.00	-0.166
332.50	-0.175
332.00	-0.137
331.50	-0.093
331.00	-0.062
330.50	-0.039
330.00	-0.012
329.50	0.018
329.00	0.047
328.50	0.058
328.00	0.063
327.50	0.073
327.00	0.087
326.50	0.093
326.00	0.066
325.50	0.004
325.00	-0.051
324.50	-0.075
324.00	-0.090
323.50	-0.088
323.00	-0.074
322.50	-0.044
322.00	0.033
321.50	0.133
321.00	0.217
320.50	0.265
320.00	0.276
319.50	0.268
319.00	0.250
318.50	0.191
318.00	0.105
317.50	0.010
317.00	-0.074
316.50	-0.109
316.00	-0.116
315.50	-0.111
315.00	-0.094
314.50	-0.068
314.00	-0.042
313.50	-0.022
313.00	-0.011
312.50	-0.006
312.00	0.024
311.50	0.074
311.00	0.118
310.50	0.139
310.00	0.124
309.50	0.074
309.00	0.014
308.50	-0.027
308.00	-0.062
307.50	-0.053
307.00	-0.019
306.50	0.025
306.00	0.058
305.50	0.067
305.00	0.045
304.50	0.005
304.00	-0.053
303.50	-0.096
303.00	-0.112
302.50	-0.106
302.00	-0.084
301.50	-0.069
301.00	-0.081
300.50	-0.104
300.00	-0.135

